#Exit profile rao nozzle for RFZ-ST2 upper stage
#"adial coordinate"
#"axial velocity"
#"radial velocity"
#"pressure"
#"sa_viscosity"
#"temperature"
#"Mach_number"
#"CO_mass_fraction"
#"CO2_mass_fraction"
#"H2_mass_fraction"
#"H2O_mass_fraction"
#"OH_mass_fraction"
#"O2_mass_fraction"
#"density"
 1.485166502E+00 0.000000000E+00 0.000000000E+00 7.984085393E+03 0.000000000E+00 1.000000000E+03 0.000000000E+00 3.615052726E-01 3.740906103E-01 1.312161535E-02 2.510961758E-01 2.561055299E-05 2.023120560E-06 2.288842946E-02
 1.484865706E+00 9.503732640E+02 1.186253415E+02 7.997526347E+03 1.677817284E-02 1.316371705E+03 1.266600149E+00 3.615234501E-01 3.740635628E-01 1.312380727E-02 2.510766884E-01 5.433026148E-05 2.022685567E-06 1.741677002E-02
 1.484490596E+00 1.264234245E+03 1.540406857E+02 8.029179500E+03 3.887103223E-02 1.354778476E+03 1.661532142E+00 3.615368853E-01 3.740427544E-01 1.312381459E-02 2.510763704E-01 6.253537751E-05 2.025201315E-06 1.698999092E-02
 1.484023081E+00 1.437200824E+03 1.749267428E+02 8.028107445E+03 6.120045697E-02 1.361618509E+03 1.884327953E+00 3.615494277E-01 3.740232649E-01 1.312315094E-02 2.510818530E-01 6.474988670E-05 2.028795325E-06 1.690237466E-02
 1.483440804E+00 1.568548263E+03 1.924345153E+02 7.994983315E+03 8.859702700E-02 1.359156685E+03 2.058539467E+00 3.615640038E-01 3.740006031E-01 1.312205177E-02 2.510909912E-01 6.471759999E-05 2.033749682E-06 1.686310871E-02
 1.482716216E+00 1.678901359E+03 2.080935549E+02 7.955524336E+03 1.212633232E-01 1.352195847E+03 2.209061588E+00 3.615824389E-01 3.739718989E-01 1.312049817E-02 2.511038731E-01 6.347457833E-05 2.040476226E-06 1.686623985E-02
 1.481815474E+00 1.775047671E+03 2.211557723E+02 7.926994248E+03 1.602908137E-01 1.342926919E+03 2.343362911E+00 3.616053633E-01 3.739361723E-01 1.311850784E-02 2.511203321E-01 6.154912345E-05 2.049313293E-06 1.692172002E-02
 1.480697162E+00 1.861129907E+03 2.315271650E+02 7.916011923E+03 2.074424818E-01 1.332615022E+03 2.465917628E+00 3.616341693E-01 3.738911868E-01 1.311602051E-02 2.511409600E-01 5.925897312E-05 2.060961184E-06 1.702899555E-02
 1.479310819E+00 1.940094163E+03 2.402286625E+02 7.912429611E+03 2.647838105E-01 1.321761249E+03 2.580311791E+00 3.616690588E-01 3.738368772E-01 1.311301636E-02 2.511654590E-01 5.676726062E-05 2.076148929E-06 1.716100522E-02
 1.477595256E+00 2.014261445E+03 2.483180739E+02 7.906022961E+03 3.344374038E-01 1.310196799E+03 2.689918013E+00 3.617117775E-01 3.737704799E-01 1.310936736E-02 2.511949204E-01 5.412618285E-05 2.095645434E-06 1.729838741E-02
 1.475476672E+00 2.085584327E+03 2.565394640E+02 7.890093037E+03 4.183406366E-01 1.297729294E+03 2.797672339E+00 3.617642353E-01 3.736890510E-01 1.310491459E-02 2.512304858E-01 5.136764384E-05 2.120831565E-06 1.742929727E-02
 1.472866499E+00 2.155769835E+03 2.653680679E+02 7.861294022E+03 5.180105368E-01 1.284252497E+03 2.906132739E+00 3.618290584E-01 3.735884842E-01 1.309941187E-02 2.512737433E-01 4.857761611E-05 2.154024506E-06 1.754779832E-02
 1.469658901E+00 2.227687959E+03 2.743641442E+02 7.827731853E+03 6.338848252E-01 1.270543227E+03 3.018341810E+00 3.619110382E-01 3.734613621E-01 1.309240643E-02 2.513275159E-01 4.590374791E-05 2.199363706E-06 1.766125523E-02
 1.465727662E+00 2.297918182E+03 2.830752799E+02 7.787548717E+03 7.593256928E-01 1.256673413E+03 3.129652742E+00 3.620072030E-01 3.733122547E-01 1.308427928E-02 2.513898810E-01 4.338768187E-05 2.254923335E-06 1.776431768E-02
 1.460921971E+00 2.370204569E+03 2.917882215E+02 7.744451088E+03 8.942259192E-01 1.242771542E+03 3.245020000E+00 3.621227653E-01 3.731330818E-01 1.307464719E-02 2.514639263E-01 4.104565244E-05 2.326732566E-06 1.786332931E-02
 1.455060209E+00 2.446919894E+03 3.005818375E+02 7.695940258E+03 1.033615258E+00 1.228750391E+03 3.367870648E+00 3.622617133E-01 3.729173802E-01 1.306272674E-02 2.515527703E-01 3.888738213E-05 2.421047183E-06 1.795365015E-02
 1.447920385E+00 2.530490531E+03 3.096561158E+02 7.638189466E+03 1.169681666E+00 1.214577125E+03 3.501735429E+00 3.624348912E-01 3.726492019E-01 1.304784092E-02 2.516619976E-01 3.693626408E-05 2.546330836E-06 1.802639442E-02
 1.439225591E+00 2.624068684E+03 3.193231766E+02 7.564891280E+03 1.290262180E+00 1.200117572E+03 3.651398515E+00 3.626475752E-01 3.723196142E-01 1.302929279E-02 2.517956976E-01 3.520635431E-05 2.715000718E-06 1.806788540E-02
 1.428623257E+00 2.731725907E+03 3.299136266E+02 7.466634258E+03 1.375540437E+00 1.185002488E+03 3.823423629E+00 3.629123533E-01 3.719089583E-01 1.300584889E-02 2.519617797E-01 3.368964590E-05 2.947603780E-06 1.805979948E-02
 1.415658779E+00 2.858279992E+03 3.418378250E+02 7.325746706E+03 1.392431477E+00 1.168327979E+03 4.026575110E+00 3.632501045E-01 3.713838630E-01 1.297593564E-02 2.521736044E-01 3.234721042E-05 3.285507893E-06 1.797052424E-02
 1.399747061E+00 3.004312613E+03 3.536328898E+02 7.150305641E+03 1.292365881E+00 1.149731707E+03 4.263073086E+00 3.636928977E-01 3.706923440E-01 1.293785496E-02 2.524516383E-01 3.120072398E-05 3.804495903E-06 1.782141476E-02
 0.000000000E+00 3.560411338E+03 0.000000000E+00 2.104110671E+03 6.712474646E-06 8.737967068E+02 5.701547792E+00 3.727026003E-01 3.565446933E-01 1.217190279E-02 2.582390558E-01 7.356325527E-06 1.820635282E-05 6.890318570E-03
 1.370689446E+00 3.153697610E+03 3.642523271E+02 6.847348235E+03 1.035458180E+00 1.129003252E+03 4.511876696E+00 3.643141967E-01 3.697165808E-01 1.288233236E-02 2.528488748E-01 3.024128150E-05 4.562671047E-06 1.737671693E-02
 1.341588122E+00 3.287051260E+03 3.739335182E+02 6.490540235E+03 6.876425499E-01 1.109778329E+03 4.739350794E+00 3.650798379E-01 3.685077005E-01 1.281121104E-02 2.533482856E-01 2.962014355E-05 5.459975975E-06 1.675393672E-02
 1.312371978E+00 3.373121542E+03 3.800560924E+02 6.131117024E+03 3.754349092E-01 1.096871302E+03 4.889242580E+00 3.657897076E-01 3.673776919E-01 1.274414796E-02 2.538220707E-01 2.952647629E-05 6.272840344E-06 1.601044462E-02
 1.282805241E+00 3.426589151E+03 3.831210715E+02 5.743915156E+03 1.451897285E-01 1.086032290E+03 4.989000242E+00 3.663756141E-01 3.664387466E-01 1.268982847E-02 2.542167427E-01 2.947355142E-05 7.030115945E-06 1.514676552E-02
 1.248763685E+00 3.455783649E+03 3.838351539E+02 5.321958033E+03 2.097179745E-02 1.072281050E+03 5.060800768E+00 3.667614891E-01 3.658257799E-01 1.265492554E-02 2.544684388E-01 2.843808103E-05 7.718755726E-06 1.421171663E-02
 1.206800593E+00 3.471623282E+03 3.846664561E+02 4.833935035E+03 0.000000000E+00 1.051581048E+03 5.130236600E+00 3.670009717E-01 3.654647886E-01 1.263311085E-02 2.546053690E-01 2.562849641E-05 8.424916788E-06 1.316096156E-02
 1.153822277E+00 3.482200529E+03 3.852091499E+02 4.285405371E+03 0.000000000E+00 1.023625214E+03 5.211109140E+00 3.670800554E-01 3.653754023E-01 1.262275072E-02 2.546229753E-01 2.142928058E-05 9.199066682E-06 1.198542078E-02
 1.087918939E+00 3.493313742E+03 3.871732650E+02 3.711017722E+03 3.795616806E-06 9.916074008E+02 5.306220959E+00 3.669665058E-01 3.655872616E-01 1.262363199E-02 2.545185543E-01 1.727125909E-05 1.014003617E-05 1.071326923E-02
 1.008651164E+00 3.508815328E+03 3.862073075E+02 3.152839916E+03 7.111484124E-06 9.576373947E+02 5.416838880E+00 3.667433622E-01 3.659532296E-01 1.262925050E-02 2.543606289E-01 1.363851303E-05 1.131221715E-05 9.423494327E-03
 9.198755402E-01 3.527301431E+03 3.838113921E+02 2.666410715E+03 7.975568185E-06 9.241485980E+02 5.535912908E+00 3.666016904E-01 3.661708213E-01 1.262780975E-02 2.542750312E-01 1.061922378E-05 1.258103452E-05 8.257142407E-03
 8.199097281E-01 3.543516140E+03 3.749965617E+02 2.305417519E+03 7.163976681E-06 8.955927831E+02 5.641719700E+00 3.668016415E-01 3.658429327E-01 1.260412482E-02 2.544180524E-01 8.411175578E-06 1.366620481E-05 7.366039676E-03
 7.076171370E-01 3.554441130E+03 3.555518344E+02 2.074270071E+03 6.566695374E-06 8.743083171E+02 5.719685511E+00 3.675068330E-01 3.647252591E-01 1.254777584E-02 2.548819416E-01 6.971372023E-06 1.457553573E-05 6.788455468E-03
 5.858236514E-01 3.560233684E+03 3.250594197E+02 1.959071889E+03 6.397370330E-06 8.621773704E+02 5.761643668E+00 3.687415571E-01 3.627791681E-01 1.245661581E-02 2.556820832E-01 6.260156595E-06 1.546594013E-05 6.501521600E-03
 4.553056647E-01 3.562093950E+03 2.788107603E+02 1.945385190E+03 6.488633009E-06 8.599621942E+02 5.765072403E+00 3.701269136E-01 3.605972308E-01 1.235597674E-02 2.565784697E-01 6.205059305E-06 1.645226842E-05 6.472802182E-03
 3.155589312E-01 3.561909013E+03 2.130976849E+02 2.001657120E+03 6.612041373E-06 8.646443117E+02 5.742608455E+00 3.715855096E-01 3.583011636E-01 1.225129684E-02 2.575204190E-01 6.605263021E-06 1.742698467E-05 6.624093330E-03
 1.661717737E-01 3.560897290E+03 1.239807089E+02 2.080577824E+03 6.687932888E-06 8.713410905E+02 5.713345538E+00 3.725554313E-01 3.567758120E-01 1.218219863E-02 2.581448687E-01 7.155500803E-06 1.810411244E-05 6.832448215E-03
