# Contour of the TIC nozzle
# Colums:
# 1: axial distance from throat [mm]
# 2: radius [mm]
-1.228019755541108253e+02 1.664247927074605968e+02
-1.222134334505793021e+02 1.658410893244873137e+02
-1.216248913470477646e+02 1.652610961915368932e+02
-1.210363492435162414e+02 1.646860896561893526e+02
-1.204478071399847181e+02 1.641167521715855457e+02
-1.198592650364531806e+02 1.635527908444703087e+02
-1.192707229329216574e+02 1.629940691387993468e+02
-1.186821808293901199e+02 1.624405829876264704e+02
-1.180936387258585967e+02 1.618922415602868625e+02
-1.175050966223270734e+02 1.613489593582119426e+02
-1.169165545187955360e+02 1.608106806913234550e+02
-1.163280124152640127e+02 1.602773448362525528e+02
-1.157394703117324894e+02 1.597488871279008151e+02
-1.151509282082009520e+02 1.592252479135915735e+02
-1.145623861046694287e+02 1.587063700148137286e+02
-1.139738440011379055e+02 1.581921965865670359e+02
-1.133853018976063680e+02 1.576826722081849823e+02
-1.127967597940748448e+02 1.571777431048115545e+02
-1.122082176905433073e+02 1.566773566859812092e+02
-1.116196755870117840e+02 1.561814615036438738e+02
-1.110311334834802608e+02 1.556900073527682480e+02
-1.104425913799487233e+02 1.552029453662463538e+02
-1.098540492764172001e+02 1.547202278324003828e+02
-1.092655071728856626e+02 1.542418081302608357e+02
-1.086769650693541394e+02 1.537676406938547302e+02
-1.080884229658226161e+02 1.532976809376268932e+02
-1.074998808622910929e+02 1.528318852961660639e+02
-1.069113387587595554e+02 1.523702111811580551e+02
-1.063227966552280321e+02 1.519126169349610507e+02
-1.057342545516964947e+02 1.514590618274141889e+02
-1.051457124481649714e+02 1.510095060061515255e+02
-1.045571703446334482e+02 1.505639104826234416e+02
-1.039686282411019107e+02 1.501222372050636693e+02
-1.033800861375703875e+02 1.496844489281866970e+02
-1.027915440340388500e+02 1.492505091443501328e+02
-1.022030019305073267e+02 1.488203821409798593e+02
-1.016144598269758035e+02 1.483940329547509123e+02
-1.010259177234442802e+02 1.479714273303222001e+02
-1.004373756199127428e+02 1.475525317061438670e+02
-9.984883351638121951e+01 1.471373132162204058e+02
-9.926029141284968205e+01 1.467257396769878710e+02
-9.867174930931815879e+01 1.463177795560830816e+02
-9.808320720578663554e+01 1.459134019438451446e+02
-9.749466510225509808e+01 1.455125765481203928e+02
-9.690612299872357482e+01 1.451152736928177660e+02
-9.631758089519203736e+01 1.447214643028012802e+02
-9.572903879166051411e+01 1.443311198672302282e+02
-9.514049668812899085e+01 1.439442124098512750e+02
-9.455195458459746760e+01 1.435607144963556721e+02
-9.396341248106593014e+01 1.431805992457338448e+02
-9.337487037753440688e+01 1.428038403005859891e+02
-9.278632827400286942e+01 1.424304117865156911e+02
-9.219778617047134617e+01 1.420602883021482512e+02
-9.160924406693982291e+01 1.416934449276800763e+02
-9.102070196340828545e+01 1.413298572276380014e+02
-9.043215985987676220e+01 1.409695012362938087e+02
-8.984361775634522473e+01 1.406123534300697600e+02
-8.925507565281370148e+01 1.402583907041049258e+02
-8.866653354928217823e+01 1.399075903709126010e+02
-8.807799144575065498e+01 1.395599301580741667e+02
-8.748944934221911751e+01 1.392153882045238333e+02
-8.690090723868758005e+01 1.388739430309925638e+02
-8.631236513515605679e+01 1.385355735431913047e+02
-8.572382303162453354e+01 1.382002590644761426e+02
-8.513528092809301029e+01 1.378679792879061949e+02
-8.454673882456147282e+01 1.375387142494994919e+02
-8.395819672102994957e+01 1.372124443387170913e+02
-8.336965461749841211e+01 1.368891502903750279e+02
-8.278111251396688886e+01 1.365688131775272609e+02
-8.219257041043536560e+01 1.362514144027486509e+02
-8.160402830690384235e+01 1.359369356935464452e+02
-8.101548620337230489e+01 1.356253590796058006e+02
-8.042694409984076742e+01 1.353166669022303381e+02
-7.983840199630924417e+01 1.350108418320952239e+02
-7.924985989277772092e+01 1.347078668337626084e+02
-7.866131778924619766e+01 1.344077251490056142e+02
-7.807277568571466020e+01 1.341104003071871205e+02
-7.748423358218312273e+01 1.338158761330050766e+02
-7.689569147865159948e+01 1.335241367336697067e+02
-7.630714937512007623e+01 1.332351664687780612e+02
-7.571860727158855298e+01 1.329489499460423190e+02
-7.513006516805702972e+01 1.326654720364970785e+02
-7.454152306452549226e+01 1.323847178761501766e+02
-7.395298096099395480e+01 1.321066728531018839e+02
-7.336443885746243154e+01 1.318313225648117850e+02
-7.277589675393090829e+01 1.315586528456583721e+02
-7.218735465039938504e+01 1.312886498339012178e+02
-7.159881254686784757e+01 1.310212999000898719e+02
-7.101027044333631011e+01 1.307565895937441667e+02
-7.042172833980478686e+01 1.304945056851583729e+02
-6.983318623627326360e+01 1.302350351573811906e+02
-6.924464413274174035e+01 1.299781652025329493e+02
-6.865610202921020289e+01 1.297238832529406807e+02
-6.806755992567867963e+01 1.294721769510217655e+02
-6.747901782214714217e+01 1.292230341360956061e+02
-6.689047571861561892e+01 1.289764428568479104e+02
-6.630193361508409566e+01 1.287323913458129994e+02
-6.571339151155257241e+01 1.284908680053020475e+02
-6.512484940802103495e+01 1.282518614291712424e+02
-6.453630730448949748e+01 1.280153603954213679e+02
-6.394776520095798134e+01 1.277813538615686753e+02
-6.335922309742645098e+01 1.275498309991048700e+02
-6.277068099389492062e+01 1.273207811631767896e+02
-6.218213889036339026e+01 1.270941938472030870e+02
-6.159359678683186701e+01 1.268700587190689362e+02
-6.100505468330033665e+01 1.266483656600139227e+02
-6.041651257976880629e+01 1.264291047043345912e+02
-5.982797047623727593e+01 1.262122660121830222e+02
-5.923942837270575268e+01 1.259978399079878102e+02
-5.865088626917422232e+01 1.257858168897902118e+02
-5.806234416564269907e+01 1.255761875944476316e+02
-5.747380206211116160e+01 1.253689428042420957e+02
-5.688525995857963835e+01 1.251640734880637353e+02
-5.629671785504811510e+01 1.249615707610644364e+02
-5.570817575151657763e+01 1.247614258492395152e+02
-5.511963364798505438e+01 1.245636301305964082e+02
-5.453109154445351692e+01 1.243681751744594806e+02
-5.394254944092199366e+01 1.241750526850138101e+02
-5.335400733739047041e+01 1.239842544730442597e+02
-5.276546523385893295e+01 1.237957724848775740e+02
-5.217692313032740969e+01 1.236095988040181339e+02
-5.158838102679588644e+01 1.234257256164391947e+02
-5.099983892326434898e+01 1.232441452360304766e+02
-5.041129681973282572e+01 1.230648501606947889e+02
-4.982275471620128826e+01 1.228878330125293985e+02
-4.923421261266976501e+01 1.227130865111435298e+02
-4.864567050913824175e+01 1.225406035022997173e+02
-4.805712840560670429e+01 1.223703769726677990e+02
-4.746858630207518104e+01 1.222024000358159128e+02
-4.688004419854365779e+01 1.220366659117067911e+02
-4.629150209501212032e+01 1.218731679003465018e+02
-4.570295999148059707e+01 1.217118994117232376e+02
-4.511441788794907382e+01 1.215528540189512228e+02
-4.452587578441753635e+01 1.213960254094538556e+02
-4.393733368088601310e+01 1.212414073719629357e+02
-4.334879157735447563e+01 1.210889938129752039e+02
-4.276024947382295238e+01 1.209387787549432289e+02
-4.217170737029142913e+01 1.207907563215696030e+02
-4.158316526675989167e+01 1.206449207250822582e+02
-4.099462316322836841e+01 1.205012662461064821e+02
-4.040608105969684516e+01 1.203597872736610270e+02
-3.981753895616530770e+01 1.202204783643130099e+02
-3.922899685263378444e+01 1.200833341782704338e+02
-3.864045474910224698e+01 1.199483494560660404e+02
-3.805191264557072373e+01 1.198155190328863853e+02
-3.746337054203920047e+01 1.196848378373972821e+02
-3.687482843850766301e+01 1.195563008989597051e+02
-3.628628633497613976e+01 1.194299033455407084e+02
-3.569774423144461650e+01 1.193056403696375867e+02
-3.510920212791307904e+01 1.191835072566924509e+02
-3.452066002438155579e+01 1.190634994538046385e+02
-3.393211792085003253e+01 1.189456124946297280e+02
-3.334357581731849507e+01 1.188298419621109190e+02
-3.275503371378697182e+01 1.187161835278284343e+02
-3.216649161025543435e+01 1.186046329667436510e+02
-3.157794950672391110e+01 1.184951861510707261e+02
-3.098940740319238785e+01 1.183878390315989293e+02
-3.040086529966085038e+01 1.182825876318262459e+02
-2.981232319612932713e+01 1.181794280606728194e+02
-2.922378109259780388e+01 1.180783565536100213e+02
-2.863523898906626641e+01 1.179793694414030654e+02
-2.804669688553474316e+01 1.178824631112795487e+02
-2.745815478200321991e+01 1.177876340096739796e+02
-2.686961267847168244e+01 1.176948786666302169e+02
-2.628107057494015919e+01 1.176041937189817475e+02
-2.569252847140862173e+01 1.175155758882535224e+02
-2.510398636787709847e+01 1.174290219872126642e+02
-2.451544426434557522e+01 1.173445289052380076e+02
-2.392690216081403776e+01 1.172620935931956154e+02
-2.333836005728251450e+01 1.171817130685969346e+02
-2.274981795375099125e+01 1.171033844394653016e+02
-2.216127585021945379e+01 1.170271049230676113e+02
-2.157273374668793053e+01 1.169528718078188945e+02
-2.098419164315639307e+01 1.168806824413264280e+02
-2.039564953962486982e+01 1.168105342409560023e+02
-1.980710743609334656e+01 1.167424247174483156e+02
-1.921856533256180910e+01 1.166763514658248937e+02
-1.863002322903028585e+01 1.166123121444762489e+02
-1.804148112549876259e+01 1.165503044731832176e+02
-1.745293902196722513e+01 1.164903262498604022e+02
-1.686439691843570188e+01 1.164323753833981954e+02
-1.627585481490417862e+01 1.163764498547252941e+02
-1.568731271137264116e+01 1.163225476856687521e+02
-1.509877060784111791e+01 1.162706669590477730e+02
-1.451022850430958044e+01 1.162208058464339899e+02
-1.392168640077805719e+01 1.161729626074021837e+02
-1.333314429724653394e+01 1.161271355759623987e+02
-1.274460219371499647e+01 1.160833231661290483e+02
-1.215606009018347322e+01 1.160415238502039017e+02
-1.156751798665194997e+01 1.160017361552014847e+02
-1.097897588312041250e+01 1.159639586826866093e+02
-1.039043377958888925e+01 1.159281901114298705e+02
-9.801891676057365999e+00 1.158944291913314260e+02
-9.213349572525828535e+00 1.158626747395337304e+02
-8.624807468994305282e+00 1.158329256579559114e+02
-8.036265365462767818e+00 1.158051809518032655e+02
-7.447723261931244565e+00 1.157794396287900156e+02
-6.859181158399721312e+00 1.157556999976530818e+02
-6.270639054868183848e+00 1.157339584477013261e+02
-5.682096951336660595e+00 1.157142090311467371e+02
-5.093554847805137342e+00 1.156964443602216051e+02
-4.505012744273599878e+00 1.156806566495947806e+02
-3.916470640742076625e+00 1.156668380971288741e+02
-3.327928537210539162e+00 1.156549809121867156e+02
-2.739386433679015909e+00 1.156450773262059357e+02
-2.150844330147492656e+00 1.156371195563203287e+02
-1.562302226615955192e+00 1.156310997311073976e+02
-9.737601230844319389e-01 1.156270106638616824e+02
-3.852180195529086859e-01 1.156248453751651795e+02
0.000000000000000000e+00 1.156239999999999952e+02
2.033240839786287779e-01 1.156245947977656954e+02
7.918661875101520309e-01 1.156262499617260175e+02
1.380408291041675284e+00 1.156298045881508898e+02
1.968950394573212748e+00 1.156352519995201504e+02
2.557492498104736001e+00 1.156425840358654398e+02
3.146034601636273464e+00 1.156517928523429646e+02
3.734576705167796717e+00 1.156628708885708079e+02
4.323118808699319970e+00 1.156758105472179210e+02
4.911660912230857434e+00 1.156906042616610932e+02
5.500203015762380687e+00 1.157072444756888672e+02
6.088745119293903940e+00 1.157257236531372939e+02
6.677287222825427193e+00 1.157460342721041684e+02
7.265829326356978868e+00 1.157681688275271767e+02
7.854371429888502121e+00 1.157921198293726519e+02
8.442913533420025374e+00 1.158178798035768438e+02
9.031455636951548627e+00 1.158454412933952398e+02
9.619997740483071880e+00 1.158747968577485210e+02
1.020853984401459513e+01 1.159059390728991161e+02
1.079708194754614681e+01 1.159388605306485260e+02
1.138562405107767006e+01 1.159735538324944315e+02
1.197416615460919331e+01 1.160100115954149089e+02
1.256270825814071657e+01 1.160482264521135676e+02
1.315125036167223982e+01 1.160881910507444843e+02
1.373979246520379149e+01 1.161298980552492708e+02
1.432833456873531475e+01 1.161733401450035927e+02
1.491687667226683800e+01 1.162185100150335018e+02
1.550541877579836125e+01 1.162654003757896533e+02
1.609396087932988451e+01 1.163140039532912340e+02
1.668250298286143618e+01 1.163643134910615515e+02
1.727104508639295943e+01 1.164163217481415415e+02
1.785958718992448269e+01 1.164700214984427191e+02
1.844812929345600594e+01 1.165254055313614288e+02
1.903667139698752919e+01 1.165824666494725079e+02
1.962521350051905245e+01 1.166411976708138951e+02
2.021375560405060412e+01 1.167015914289858642e+02
2.080229770758212737e+01 1.167636407730369967e+02
2.139083981111365063e+01 1.168273385675383338e+02
2.197938191464517388e+01 1.168926776924988928e+02
2.256792401817669713e+01 1.169596510434219994e+02
2.315646612170824881e+01 1.170282515313425904e+02
2.374500822523977206e+01 1.170984720827696179e+02
2.433355032877129531e+01 1.171703056414642958e+02
2.492209243230281857e+01 1.172437451666469599e+02
2.551063453583434182e+01 1.173187836314564407e+02
2.609917663936586507e+01 1.173954140244796633e+02
2.668771874289741675e+01 1.174736293489413157e+02
2.727626084642894000e+01 1.175534226235058100e+02
2.786480294996046325e+01 1.176347868823108058e+02
2.845334505349198650e+01 1.177177151749272070e+02
2.904188715702350976e+01 1.178022005663865457e+02
2.963042926055506143e+01 1.178882361371486525e+02
3.021897136408658469e+01 1.179758149831241099e+02
3.080751346761810794e+01 1.180649302159443153e+02
3.139605557114963119e+01 1.181555749626835876e+02
3.198459767468115444e+01 1.182477423670528083e+02
3.257313977821267770e+01 1.183414255881996127e+02
3.316168188174422937e+01 1.184366177991865214e+02
3.375022398527575263e+01 1.185333121885078640e+02
3.433876608880727588e+01 1.186315019598534661e+02
3.492730819233879913e+01 1.187311803323410402e+02
3.551585029587032238e+01 1.188323405405312627e+02
3.610439239940187406e+01 1.189349758344094994e+02
3.669293450293339731e+01 1.190390794793985663e+02
3.728147660646492056e+01 1.191446447563433253e+02
3.787001870999644382e+01 1.192516649615215840e+02
3.845856081352796707e+01 1.193601334071473730e+02
3.904710291705949032e+01 1.194700434208639592e+02
3.963564502059104200e+01 1.195813883462350589e+02
4.022418712412256525e+01 1.196941615422505834e+02
4.081272922765408850e+01 1.198083563821768252e+02
4.140127133118561176e+01 1.199239662547036573e+02
4.198981343471713501e+01 1.200409845639148330e+02
4.257835553824868668e+01 1.201594047293155114e+02
4.316689764178020994e+01 1.202792201858402734e+02
4.375543974531173319e+01 1.204004243838432444e+02
4.434398184884325644e+01 1.205230107891051716e+02
4.493252395237477970e+01 1.206469728828265886e+02
4.552106605590633137e+01 1.207723041616322206e+02
4.610960815943785462e+01 1.208989981382939760e+02
4.669815026296937788e+01 1.210270483410059228e+02
4.728669236650090113e+01 1.211564483131629686e+02
4.787523447003242438e+01 1.212871916135802906e+02
4.846377657356394764e+01 1.214192718158582522e+02
4.905231867709549931e+01 1.215526825090159946e+02
4.964086078062702256e+01 1.216874172974968644e+02
5.022940288415854582e+01 1.218234698011616786e+02
5.081794498769006907e+01 1.219608336552936407e+02
5.140648709122159232e+01 1.220995025105922593e+02
5.199502919475314400e+01 1.222394700331777244e+02
5.258357129828466725e+01 1.223807299046412993e+02
5.317211340181619050e+01 1.225232758219935221e+02
5.376065550534771376e+01 1.226671014983872112e+02
5.434919760887923701e+01 1.228122006623931526e+02
5.493773971241076026e+01 1.229585670573969765e+02
5.552628181594231194e+01 1.231061944422012289e+02
5.611482391947383519e+01 1.232550765907546690e+02
5.670336602300535844e+01 1.234052072924219772e+02
5.729190812653688170e+01 1.235565803519870656e+02
5.788045023006840495e+01 1.237091895896489007e+02
5.846899233359995662e+01 1.238630288410245441e+02
5.905753443713147988e+01 1.240180919571452591e+02
5.964607654066300313e+01 1.241743728044594093e+02
6.023461864419452638e+01 1.243318652649869875e+02
6.082316074772604964e+01 1.244905632361641494e+02
6.141170285125757289e+01 1.246504606313595787e+02
6.200024495478912456e+01 1.248115513793573541e+02
6.258878705832064782e+01 1.249738294236958609e+02
6.317732916185217107e+01 1.251372887233281688e+02
6.376587126538369432e+01 1.253019232525371081e+02
6.435441336891521757e+01 1.254677270010194547e+02
6.494295547244676925e+01 1.256346939738881474e+02
6.553149757597829250e+01 1.258028181916694592e+02
6.612003967950981576e+01 1.259720936903050870e+02
6.670858178304133901e+01 1.261425145211495362e+02
6.729712388657286226e+01 1.263140747509719972e+02
6.788566599010438551e+01 1.264867684622395672e+02
6.847420809363593719e+01 1.266605897528333742e+02
6.906275019716746044e+01 1.268355327362433513e+02
6.965129230069898369e+01 1.270115915413730079e+02
7.023983440423050695e+01 1.271887603120129029e+02
7.082837650776203020e+01 1.273670332073666600e+02
7.141691861129358188e+01 1.275464044020420147e+02
7.200546071482510513e+01 1.277268680860592269e+02
7.259400281835662838e+01 1.279084184648527298e+02
7.318254492188815163e+01 1.280910497592691399e+02
7.377108702541967489e+01 1.282747562055685648e+02
7.435962912895122656e+01 1.284595320554267914e+02
7.494817123248274982e+01 1.286453715759326428e+02
7.553671333601427307e+01 1.288322690499960004e+02
7.612525543954579632e+01 1.290202187759395258e+02
7.671379754307731957e+01 1.292092150673320816e+02
7.730233964660884283e+01 1.293992522531547991e+02
7.789088175014039450e+01 1.295903246775091020e+02
7.847942385367191775e+01 1.297824266999082568e+02
7.906796595720344101e+01 1.299755526952787079e+02
7.965650806073496426e+01 1.301696970539585152e+02
8.024505016426648751e+01 1.303648541816983766e+02
8.083359226779803919e+01 1.305610184996604062e+02
8.142213437132956244e+01 1.307581844444188732e+02
8.201067647486108569e+01 1.309563464680007314e+02
8.259921857839260895e+01 1.311554990378449475e+02
8.318776068192413220e+01 1.313556366372026503e+02
8.377630278545565545e+01 1.315567537647366976e+02
8.436484488898720713e+01 1.317588449341683940e+02
8.495338699251873038e+01 1.319619046746305173e+02
8.554192909605025363e+01 1.321659275305407277e+02
8.613047119958177689e+01 1.323709080617279028e+02
8.671901330311330014e+01 1.325768408434328762e+02
8.730755540664485181e+01 1.327837204663072725e+02
8.789609751017637507e+01 1.329915415364145304e+02
8.848463961370789832e+01 1.332002986752286233e+02
8.907318171723942157e+01 1.334099865196349413e+02
8.966172382077094483e+01 1.336205997220372410e+02
9.025026592430246808e+01 1.338321329502503545e+02
9.083880802783401975e+01 1.340445808877777267e+02
9.142735013136554301e+01 1.342579382335336220e+02
9.201589223489706626e+01 1.344721997014646035e+02
9.260443433842858951e+01 1.346873600209278266e+02
9.319297644196011277e+01 1.349034139366537204e+02
9.378151854549166444e+01 1.351203562087832495e+02
9.437006064902318769e+01 1.353381816128683965e+02
9.495860275255471095e+01 1.355568849398715940e+02
9.554714485608623420e+01 1.357764609961660938e+02
9.613568695961775745e+01 1.359969046035353131e+02
9.672422906314928071e+01 1.362182105991734034e+02
9.731277116668083238e+01 1.364403738358763292e+02
9.790131327021235563e+01 1.366633891818506186e+02
9.848985537374387889e+01 1.368872515207927734e+02
9.907839747727540214e+01 1.371119557518095462e+02
9.966693958080692539e+01 1.373374967891233212e+02
1.002554816843384771e+02 1.375638693840691360e+02
1.008440237878700003e+02 1.377910679039973161e+02
1.014325658914015236e+02 1.380190864268190012e+02
1.020211079949330468e+02 1.382479188801579255e+02
1.026096500984645701e+02 1.384775590449218043e+02
1.031981922019960933e+02 1.387080005588734934e+02
1.037867343055276450e+02 1.389392369202024895e+02
1.043752764090591683e+02 1.391712614910959473e+02
1.049638185125906915e+02 1.394040675013102657e+02
1.055523606161222148e+02 1.396376480517421896e+02
1.061409027196537380e+02 1.398719961180001405e+02
1.067294448231852897e+02 1.401071045539756028e+02
1.073179869267168129e+02 1.403429660954142832e+02
